102.54000091552734
101.9499969482422
103.7699966430664
105.47000122070313
103.30999755859376
108.11000061035156
104.06999969482422
102.12999725341795
103.61000061035156
101.70999908447266
102.06999969482422
103.93000030517578
102.83000183105467
100.08000183105467
96.20999908447266
94.01000213623048
92.9800033569336
89.73999786376953
87.26000213623047
82.86000061035156
88.98999786376953
88.79000091552734
87.5199966430664
87.20999908447266
90.61000061035156
89.97000122070313
93.91999816894533
94.51000213623048
95.5199966430664
99.19000244140624
99.12000274658205
96.87000274658205
98.51000213623048
98.58999633789063
98.66999816894533
99.0500030517578
101.0500030517578
96.86000061035156
96.56999969482422
97.23999786376952
99.0999984741211
98.0999984741211
98.87000274658205
99.4499969482422
99.1999969482422
98.8499984741211
99.37999725341795
98.3499984741211
96.18000030517578
92.98999786376952
92.5
94.20999908447266
95.62999725341795
96.75
96.95999908447266
100.25
99.70999908447266
98.77999877929688
95.3499984741211
95.52999877929688
94.75
93.91000366210938
95.04000091552734
94
96.41999816894533
96.80999755859376
95.5
91.94000244140624
91.3499984741211
86.44000244140625
86.26000213623047
86.9800033569336
88.56999969482422
89.69000244140625
88.8499984741211
91.91999816894533
92.87999725341795
95.88999938964844
96.87000274658205
93.68000030517578
92.77999877929688
94.7699966430664
94.58999633789063
95.23999786376952
95.18000030517578
96.94000244140624
96.0500030517578
93.93000030517578
93.66999816894533
98.62999725341795
99.4800033569336
98.56999969482422
98.7300033569336
98.7300033569336
105.30999755859376
102.12000274658205
102.3499984741211
101.83999633789063
103.87000274658205
107.06999969482422
106.5999984741211
103.94000244140624
102.08000183105467
97.87999725341795
97
96.0500030517578
91.88999938964844
89.16999816894531
90.9000015258789
91.23999786376952
91.77999877929688
94.02999877929688
94.23999786376952
95
93.5
94.33999633789063
94.36000061035156
95.18000030517578
93.0199966430664
93.68000030517578
95.62999725341795
92.91000366210938
88.8499984741211
87.16000366210938
87.11000061035156
86.43000030517578
83.95999908447266
81.87999725341797
82.94999694824219
84.27999877929688
82.02999877929688
84.2699966430664
84.5999984741211
85.19999694824219
86.5
85.02999877929688
86.48999786376953
85.16999816894531
85.47000122070313
88.30000305175781
88.6500015258789
91.4499969482422
92.37000274658205
90.55999755859376
90.04000091552734
93.08999633789063
92.11000061035156
93.16000366210938
93.08999633789063
87.55999755859375
87.19999694824219
88.56999969482422
90.1500015258789
89.1500015258789
90.66000366210938
90.83999633789063
90.9000015258789
88.75
87
85.19000244140625
85.43000030517578
87.04000091552734
87.20999908447266
87.58999633789063
87.68000030517578
85.47000122070313
84.29000091552734
83.91999816894531
86.05999755859375
85.8499984741211
81.06999969482422
82.45999908447266
79
78.27999877929688
77.55000305175781
80.36000061035156
79.37000274658203
77.91999816894531
78.5199966430664
75.0199966430664
74.94000244140625
75.91999816894531
77.80999755859375
76.69000244140625
77.22000122070313
75.51000213623047
71.75
72.25
71.66000366210938
72.52999877929688
74.4800033569336
74.19000244140625
74.12999725341797
75.56999969482422
75.5999984741211
76.44000244140625
80
80.0999984741211
81.02999877929688
79.68000030517578
79.38999938964844
85.63999938964844
81.22000122070313
81.31999969482422
81.61000061035156
81
80.12999725341797
78.55999755859375
76.7699966430664
75.08999633789063
74.9800033569336
74.22000122070313
71.58000183105469
69.80000305175781
70.83999633789063
70.91999816894531
69.76000213623047
68.7300033569336
68.58999633789063
68.91000366210938
69.25
68.19000244140625
69.25
68.18000030517578
66.7699966430664
64.44000244140625
67.66000366210938
69.56999969482422
71.94000244140625
71.97000122070313
72.4800033569336
71.05000305175781
71.80999755859375
69.62000274658203
69.30999755859375
71.1500015258789
73.69000244140625
74.01000213623047
71.41999816894531
74.73999786376953
74.69999694824219
73.81999969482422
73.29000091552734
72.61000061035156
72.3499984741211
73.4800033569336
71.26000213623047
70.4000015258789
72.05999755859375
73.31999969482422
72.98999786376953
73.5199966430664
71.91000366210938
72.3499984741211
70.9000015258789
70.79000091552734
68.77999877929688
72.05000305175781
70.58999633789063
73.95999908447266
74.51000213623047
74.83999633789063
74.66999816894531
76.70999908447266
75.48999786376953
77.91000366210938
78.80999755859375
80.58999633789063
81.25
82.66000366210938
83.37999725341797
83.80999755859375
83.6500015258789
83.13999938964844
82.38999938964844
83.76000213623047
84.13999938964844
84.98999786376953
88.44000244140625
89.29000091552734
87.33999633789063
88.25
86.2699966430664
85.5199966430664
86.33000183105469
86.73999786376953
87.0199966430664
85.30999755859375
84.04000091552734
83.08999633789063
81.83000183105469
79.8499984741211
76.63999938964844
77.05000305175781
75.13999938964844
75.81999969482422
72.91000366210938
71.37000274658203
73.62000274658203
77.05000305175781
75.87000274658203
74.3499984741211
73.69999694824219
74.79000091552734
75.37999725341797
75.68000030517578
74.91999816894531
74.52999877929688
77.27999877929688
75.98999786376953
74.20999908447266
69.91000366210938
66.98999786376953
63.20000076293945
60
63.2599983215332
62.86000061035156
62.43000030517578
64.08000183105469
61.869998931884766
55.29999923706055
37.599998474121094
41.599998474121094
38.86000061035156
32.5
34.79999923706055
31.100000381469727
30.88999938964844
29.760000228881836
33.220001220703125
34.88999938964844
34.540000915527344
39.79999923706055
39.689998626708984
39.529998779296875
36
34.97999954223633
35.91999816894531
34.599998474121094
38.29999923706055
39.88999938964844
39.43000030517578
41.33000183105469
45.290000915527344
44.81999969482422
43.290000915527344
42.22999954223633
39.88999938964844
36.52000045776367
41.84000015258789
41.16999816894531
40.5
43.150001525878906
44.220001220703125
43.36000061035156
44.540000915527344
44.97999954223633
47.720001220703125
47.5099983215332
44.56999969482422
46.7400016784668
46.04999923706055
45.84000015258789
48.310001373291016
51.45000076293945
49.84000015258789
49.720001220703125
48.20000076293945
47.560001373291016
47.68000030517578
52.439998626708984
50.65999984741211
52.650001525878906
52.31999969482422
52.279998779296875
51.439998626708984
52.72999954223633
51.63999938964844
50.970001220703125
51.810001373291016
54.810001373291016
55.369998931884766
55.150001525878906
59.310001373291016
62.11000061035156
59.470001220703125
55.630001068115234
51.150001525878906
52.56999969482422
52.209999084472656
54.599998474121094
52.47999954223633
52.93000030517578
52.29999923706055
52.41999816894531
52.459999084472656
48.95000076293945
50.72999954223633
48.7599983215332
49.650001525878906
50.65999984741211
49.86000061035156
50.52000045776367
50.40999984741211
48.11000061035156
47.439998626708984
44.34000015258789
45.400001525878906
44.95000076293945
47.279998779296875
47.459999084472656
47.81999969482422
47.15999984741211
47.70000076293945
50.41999816894531
50.189998626708984
48.849998474121094
49.040000915527344
48.560001373291016
47.27000045776367
48.5
46.58000183105469
46.849998474121094
46.369998931884766
48.459999084472656
50.75
50.88999938964844
48.810001373291016
50.459999084472656
49.41999816894531
49.09000015258789
47.41999816894531
47.970001220703125
46.540000915527344
46.349998474121094
45.61000061035156
44.099998474121094
43.38999938964844
44.33000183105469
44.380001068115234
43.2599983215332
44.95000076293945
46.209999084472656
45.34000015258789
45.209999084472656
43.70000076293945
43.130001068115234
43.13999938964844
40.83000183105469
41.86000061035156
38
39.04999923706055
39.16999816894531
38.59000015258789
40.86000061035156
41.189998626708984
40.709999084472656
38.810001373291016
38.45000076293945
36.380001068115234
36.650001525878906
37.45000076293945
37.439998626708984
36.189998626708984
35.939998626708984
34.86000061035156
34.810001373291016
36.459999084472656
35.9900016784668
36.709999084472656
37.66999816894531
37.560001373291016
38.209999084472656
38.63999938964844
37.619998931884766
38.08000183105469
37.41999816894531
36.189998626708984
36.279998779296875
35.119998931884766
36.93000030517578
37.5099983215332
34.93000030517578
34.58000183105469
32.5099983215332
33.970001220703125
34.2400016784668
35.150001525878906
35.02000045776367
36.040000915527344
35.599998474121094
34.58000183105469
40.310001373291016
42.189998626708984
41.90999984741211
40.4900016784668
42.66999816894531
45.349998474121094
45.66999816894531
44.93000030517578
45.459999084472656
45.38999938964844
50.380001068115234
54.41999816894531
53
51.43000030517578
46.880001068115234
46.529998779296875
47.81999969482422
48.16999816894531
53
51.56999969482422
52.150001525878906
52.959999084472656
54.68000030517578
53.599998474121094
52.08000183105469
53.15999984741211
52.70000076293945
52.150001525878906
51.77000045776367
50.08000183105469
48.849998474121094
50.08000183105469
49.599998474121094
48.939998626708984
48.66999816894531
50.560001373291016
49.869998931884766
49.86000061035156
53.91999816894531
55.060001373291016
58.619998931884766
58.869998931884766
59.61000061035156
62.439998626708984
60.470001220703125
62.2400016784668
59.189998626708984
60.47999954223633
60.20000076293945
55.029998779296875
54.86000061035156
55.20000076293945
53.4900016784668
55.0099983215332
53.720001220703125
50.959999084472656
51.33000183105469
51.2599983215332
55.880001068115234
57.470001220703125
56.61000061035156
59.40999984741211
58.220001220703125
60.209999084472656
59.63999938964844
61.02000045776367
63.099998474121094
63.540000915527344
60.56999969482422
62.5099983215332
66.0999984741211
67.8499984741211
72.37000274658203
70.58999633789063
64.55999755859375
64.9800033569336
64.47000122070313
66.98999786376953
71.43000030517578
74.58000183105469
74.58999633789063
73.61000061035156
75.11000061035156
75.30999755859375
75
74.36000061035156
70.6500015258789
73.19000244140625
68.9000015258789
70.08000183105469
68.2300033569336
69.6500015258789
72.54000091552734
73.04000091552734
74.87999725341797
73.63999938964844
73.26000213623047
72.52999877929688
75.33999633789063
71.79000091552734
72.30000305175781
73.30000305175781
72.19000244140625
71.7699966430664
70.0999984741211
70.4000015258789
74.12000274658203
72.83000183105469
70.51000213623047
71.29000091552734
68.56999969482422
68.95999908447266
68.3499984741211
69.05999755859375
69.83000183105469
71.68000030517578
74.9800033569336
75.93000030517578
73.63999938964844
75.97000122070313
75.01000213623047
76.70999908447266
76.9800033569336
83.0999984741211
84.55000305175781
82.13999938964844
81.36000061035156
79.58000183105469
82.5999984741211
85.0999984741211
82.97000122070313
80.54000091552734
80.5199966430664
80.06999969482422
80.13999938964844
78.68000030517578
79.5999984741211
80.33000183105469
80.33999633789063
84.58999633789063
85.2699966430664
86.80999755859375
87.45999908447266
87.02999877929688
87.38999938964844
85.80999755859375
86.16999816894531
85.44000244140625
84.86000061035156
85.5999984741211
84.70999908447266
81.43000030517578
79.30999755859375
84.98999786376953
84.94999694824219
85.69999694824219
86.08999633789063
87.6500015258789
82.97000122070313
82.30999755859375
83.44000244140625
85.98999786376953
85.7699966430664
83.72000122070313
81.08999633789063
79.88999938964844
82.58999633789063
83.30000305175781
82.7300033569336
79.66000366210938
76.19000244140625
73.91000366210938
70.33999633789063
71.5
74.19000244140625
73.69999694824219
72.51000213623047
74.16999816894531
72.7300033569336
73.30000305175781
73.70999908447266
72.86000061035156
71.62000274658203
73.68000030517578
70.73999786376953
70.73999786376953
70.93000030517578
69.37999725341797
68.7300033569336
69.45999908447266
69.79000091552734
68
65.91999816894531
65.97000122070313
65.36000061035156
64.26000213623047
64.47000122070313
67.63999938964844
68.44999694824219
68.7300033569336
67.43000030517578
69.62999725341797
67.38999938964844
67.5199966430664
66.36000061035156
68.36000061035156
67.98999786376953
67.66999816894531
67.18000030517578
67.3499984741211
67.13999938964844
70.08999633789063
69.5199966430664
75.30999755859375
73.97000122070313
74.25
71.52999877929688
72.20999908447266
74.5999984741211
76.87000274658203
78.0999984741211
81.80999755859375
81.7300033569336
82.56999969482422
80.2699966430664
83.91000366210938
86.4000015258789
87.0999984741211
86.56999969482422
85.79000091552734
90.52999877929688
90.16000366210938
90.12000274658205
90.41000366210938
90.56999969482422
89.62000274658203
89.30999755859375
90.16000366210938
93.0999984741211
90.9000015258789
92
94.04000091552734
95
93.04000091552734
93.80999755859376
92.45999908447266
93.45999908447266
92.81999969482422
90.9499969482422
90.9000015258789
95.12000274658205
96.98999786376952
97.11000061035156
94.29000091552734
94.91999816894533
94.83999633789063
93.1999969482422
91.9000015258789
90.08000183105467
89.62000274658203
85.68000030517578
86.70999908447266
91.76000213623048
93.0500030517578
87.41999816894531
88.38999938964844
87
85.3499984741211
86.55999755859375
85.98999786376953
87.56999969482422
90.55999755859376
90.08000183105467
88.87999725341797
89.68000030517578
88.02999877929688
85.30000305175781
84.80999755859375
86.19000244140625
84
83.58000183105469
86.3499984741211
87.22000122070313
87.18000030517578
90.77999877929688
90.22000122070313
89.8499984741211
89.18000030517578
88.83000183105469
91.16000366210938
95.3499984741211
93.5999984741211
95.5199966430664
98.16000366210938
98.05999755859376
102.1999969482422
102.7699966430664
102
105.62999725341795
105.66999816894533
105.12999725341795
103.5
100.62999725341795
102.30999755859376
106.94000244140624
107.52999877929688
109.75
109.6999969482422
111.4800033569336
113.18000030517578
112.91999816894533
111.77999877929688
113.6999969482422
114.69000244140624
111.52999877929688
113.30999755859376
112.66000366210938
116.75
113.41000366210938
110.9000015258789
111.7699966430664
112.5999984741211
111.62000274658205
109.52999877929688
110.33000183105467
110.0999984741211
107.27999877929688
114.91999816894533
116.41000366210938
116.73999786376952
116.29000091552734
118.75
120.1500015258789
117.80999755859376
113.7699966430664
119.87999725341795
116.68000030517578
115.83999633789063
113.81999969482422
113
117.87000274658205
115.8000030517578
122.45999908447266
120.83000183105467
123.5500030517578
121.01000213623048
124.51000213623048
120.86000061035156
120.62999725341795
121.08999633789063
119.2300033569336
120.33000183105467
120.83000183105467
117.83000183105467
118.4499969482422
120.62000274658205
126.87999725341795
121.33999633789063
124.56999969482422
123.55999755859376
122.94000244140624
123.31999969482422
121.76000213623048
122.69000244140624
119.48999786376952
116.12000274658205
111.7699966430664
111.58999633789063
112.80999755859376
117.7699966430664
116.76000213623048
116.30999755859376
120.76000213623048
124.7699966430664
123.41999816894533
132.22000122070313
117.94000244140624
119.55999755859376
121.29000091552734
120.51000213623048
124.27999877929688
126.36000061035156
127.41999816894533
122.58000183105467
121.6999969482422
122.0500030517578
128.07000732421875
129.25
133.07000732421875
133.72000122070313
136.85000610351563
136.9600067138672
139.92999267578125
139.44000244140625
142.47999572753906
141.11000061035156
145.92999267578125
145.74000549316406
142.49000549316406
144
132.72999572753906
131.25999450683594
127.45999908447266
119.55999755859376
111.66999816894533
117.6500015258789
110.7699966430664
107.16999816894533
110.58999633789063
113.76000213623048
118.30999755859376
113.22000122070313
110.44000244140624
111.62000274658205
104.81999969482422
100.91000366210938
105.06999969482422
105.5199966430664
103.6999969482422
99.48999786376952
99.38999938964844
95.12000274658205
97.27999877929688
99.52999877929688
103.62000274658205
105.56999969482422
103.55999755859376
101
105.4800033569336
103.75
108.19000244140624
107.38999938964844
111.22000122070313
107.58000183105467
107.19000244140624
103.61000061035156
99.81999969482422
107.01000213623048
107.19000244140624
108.23999786376952
108.98999786376952
113.54000091552734
114.48999786376952
112.27999877929688
112.41000366210938
113.69000244140624
118.98999786376952
118.75
118.9000015258789
121.77999877929688
123.9000015258789
125.22000122070313
124.56999969482422
126.56999969482422
121.86000061035156
121.3000030517578
118.70999908447266
121.5199966430664
120.30999755859376
117.18000030517578
118.30999755859376
123.36000061035156
126.41000366210938
122.91000366210938
126.7300033569336
122.55999755859376
121.4499969482422
120.43000030517578
119.62999725341795
118.23999786376952
118.3499984741211
109.12000274658205
105.18000030517578
105.4499969482422
111.7300033569336
112.97000122070313
111.7300033569336
119.93000030517578
125.16999816894533
126.08000183105467
127.52999877929688
127.4499969482422
123.6999969482422
122.6999969482422
123.45999908447266
127.33999633789063
120.56999969482422
120.9000015258789
123.98999786376952
130.07000732421875
131.58999633789063
135
134.66000366210938
132
134.3000030517578
134.3699951171875
133.69000244140625
136.52000427246094
136.30999755859375
135.58999633789063
138.3800048828125
142.22999572753906
145.94000244140625
148.25999450683594
139.6199951171875
142.30999755859375
147.11000061035156
146.17999267578125
147.3000030517578
143.4499969482422
144.49000549316406
141.02000427246094
139.86000061035156
144.32000732421875
142.64999389648438
142.63999938964844
136.64999389648438
141.2899932861328
141.92999267578125
140.5399932861328
138.97000122070313
134.13999938964844
127.79000091552734
126.16000366210938
124.56999969482422
121.66999816894533
124.05999755859376
127.45999908447266
125.93000030517578
126.62999725341795
125.7699966430664
125.52999877929688
126.48999786376952
130.00999450683594
126.3000030517578
130.61000061035156
132.0800018310547
127.4000015258789
128.6300048828125
129.52000427246094
124.4499969482422
124.36000061035156
124.37999725341795
127.47000122070313
127.75
127.61000061035156
126.8499984741211
130.4499969482422
129.4600067138672
130.05999755859375
128.7899932861328
131.2899932861328
132.75
134.17999267578125
132.75999450683594
132.5
135.92999267578125
134.66000366210938
132.10000610351563
132.25
127.29000091552734
124.75
124.62000274658205
123.83000183105467
127.77999877929688
128.63999938964844
127.16000366210938
134.13999938964844
133.27999877929688
133.1300048828125
128.52999877929688
125.13999938964844
118.41999816894533
119.2300033569336
117.56999969482422
119.52999877929688
114.26000213623048
114.75
113.0199966430664
118.01000213623048
120.8000030517578
121.7699966430664
120.91000366210938
118.26000213623048
117.83000183105467
115
112.18000030517578
109.0999984741211
109.1999969482422
101.4800033569336
104.4800033569336
102.75
105.4499969482422
108.62000274658205
105.7300033569336
104.77999877929688
105.48999786376952
108.37999725341795
110.41000366210938
112.68000030517578
113.54000091552734
114.62999725341795
121.41000366210938
119.62000274658205
120.37000274658205
119.37000274658205
120.37000274658205
121.68000030517578
122.30999755859376
121.29000091552734
121.61000061035156
120.77999877929688
119
118.8000030517578
118.26000213623048
117.30999755859376
119.18000030517578
116.66999816894533
115.66000366210938
115.83999633789063
119.47000122070313
118.63999938964844
111.61000061035156
111.0199966430664
111.30999755859376
114.16999816894533
114.36000061035156
113.7699966430664
112.16000366210938
110.52999877929688
110.41999816894533
111.33999633789063
107.62999725341795
110.8000030517578
112.0199966430664
114.58999633789063
113.5500030517578
113.45999908447266
113.29000091552734
110.4000015258789
110.12000274658205
108.80999755859376
107.29000091552734
108.1500015258789
111.91999816894533
111.6500015258789
112.80999755859376
116.25
116.1500015258789
116.25
113.91999816894533
112.72000122070313
110.66999816894533
111.6999969482422
113.41000366210938
110.33000183105467
110.87000274658205
108.25
106.81999969482422
110
108.9800033569336
111.19000244140624
113
114.44000244140624
114.6999969482422
114.29000091552734
112.25
116.1999969482422
115.7699966430664
119.5999984741211
121.70999908447266
122.56999969482422
118.93000030517578
118.68000030517578
122.7699966430664
122.44000244140624
123.48999786376952
124.61000061035156
126.1500015258789
128.5
129.32000732421875
128.75999450683594
130.6999969482422
132.52999877929688
131.75
130.0399932861328
131.69000244140625
129.8000030517578
127.62999725341795
128.39999389648438
130.80999755859375
131.0500030517578
132.3300018310547
131.47999572753906
129.13999938964844
128.60000610351563
129.72999572753906
130.6300048828125
130.3699951171875
129.24000549316406
128.88999938964844
125.68000030517578
127.08000183105467
127.41999816894533
127.8499984741211
127.7699966430664
128.6199951171875
130.97999572753906
133.38999938964844
133.1199951171875
131.5500030517578
132.72999572753906
130.1699981689453
134.08999633789063
132.91000366210938
134.66000366210938
132.17999267578125
131.8800048828125
129
125.5
122.58999633789063
122.62000274658205
125.6500015258789
126.87999725341795
129.80999755859375
129.47000122070313
126.76000213623048
123.66000366210938
124.23999786376952
119.36000061035156
118.45999908447266
120.68000030517578
127.23999786376952
126.70999908447266
127.37000274658205
128.9600067138672
133.83999633789063
134.02999877929688
134.3000030517578
135.75999450683594
136.22999572753906
133.22999572753906
131.63999938964844
129.94000244140625
129.72999572753906
127.94000244140624
125.98999786376952
125.4499969482422
126.25
124.22000122070313
128.64999389648438
128.16000366210938
126.41999816894533
122.63999938964844
121.20999908447266
121.3000030517578
122.6999969482422
123.05999755859376
125.12000274658205
123.06999969482422
120.6999969482422
124
125.2300033569336
124.25
123.16999816894533
123.5
